"5.120 - RawData"
"Wavelength nm." "Abs."
190,00 0,797
191,00 0,767
192,00 0,740
193,00 0,716
194,00 0,697
195,00 0,679
196,00 0,663
197,00 0,648
198,00 0,632
199,00 0,617
200,00 0,601
201,00 0,585
202,00 0,568
203,00 0,551
204,00 0,534
205,00 0,516
206,00 0,498
207,00 0,481
208,00 0,464
209,00 0,448
210,00 0,433
211,00 0,420
212,00 0,406
213,00 0,394
214,00 0,382
215,00 0,370
216,00 0,359
217,00 0,349
218,00 0,339
219,00 0,330
220,00 0,321
221,00 0,311
222,00 0,302
223,00 0,294
224,00 0,286
225,00 0,278
226,00 0,271
227,00 0,264
228,00 0,257
229,00 0,251
230,00 0,245
231,00 0,239
232,00 0,234
233,00 0,229
234,00 0,223
235,00 0,218
236,00 0,214
237,00 0,210
238,00 0,206
239,00 0,202
240,00 0,198
241,00 0,195
242,00 0,192
243,00 0,189
244,00 0,186
245,00 0,184
246,00 0,182
247,00 0,179
248,00 0,177
249,00 0,176
250,00 0,174
251,00 0,172
252,00 0,171
253,00 0,169
254,00 0,168
255,00 0,167
256,00 0,165
257,00 0,164
258,00 0,163
259,00 0,163
260,00 0,162
261,00 0,161
262,00 0,161
263,00 0,161
264,00 0,160
265,00 0,160
266,00 0,160
267,00 0,160
268,00 0,160
269,00 0,160
270,00 0,160
271,00 0,160
272,00 0,159
273,00 0,159
274,00 0,158
275,00 0,158
276,00 0,157
277,00 0,157
278,00 0,156
279,00 0,156
280,00 0,155
281,00 0,155
282,00 0,154
283,00 0,154
284,00 0,153
285,00 0,152
286,00 0,151
287,00 0,151
288,00 0,150
289,00 0,148
290,00 0,147
291,00 0,146
292,00 0,145
293,00 0,144
294,00 0,143
295,00 0,142
296,00 0,141
297,00 0,141
298,00 0,140
299,00 0,139
300,00 0,138
301,00 0,137
302,00 0,136
303,00 0,135
304,00 0,135
305,00 0,134
306,00 0,133
307,00 0,132
308,00 0,131
309,00 0,131
310,00 0,130
311,00 0,130
312,00 0,129
313,00 0,129
314,00 0,129
315,00 0,128
316,00 0,128
317,00 0,127
318,00 0,127
319,00 0,126
320,00 0,126
321,00 0,126
322,00 0,125
323,00 0,125
324,00 0,124
325,00 0,124
326,00 0,123
327,00 0,122
328,00 0,122
329,00 0,121
330,00 0,120
331,00 0,119
332,00 0,118
333,00 0,117
334,00 0,117
335,00 0,115
336,00 0,114
337,00 0,113
338,00 0,112
339,00 0,111
340,00 0,108
341,00 0,108
342,00 0,107
343,00 0,105
344,00 0,104
345,00 0,103
346,00 0,102
347,00 0,100
348,00 0,099
349,00 0,098
350,00 0,094
351,00 0,093
352,00 0,093
353,00 0,091
354,00 0,090
355,00 0,088
356,00 0,087
357,00 0,086
358,00 0,085
359,00 0,083
360,00 0,082
361,00 0,081
362,00 0,080
363,00 0,079
364,00 0,078
365,00 0,077
366,00 0,076
367,00 0,075
368,00 0,074
369,00 0,073
370,00 0,072
371,00 0,071
372,00 0,070
373,00 0,069
374,00 0,069
375,00 0,068
376,00 0,067
377,00 0,066
378,00 0,066
379,00 0,065
380,00 0,064
381,00 0,064
382,00 0,063
383,00 0,063
384,00 0,062
385,00 0,061
386,00 0,061
387,00 0,060
388,00 0,060
389,00 0,059
390,00 0,059
391,00 0,058
392,00 0,058
393,00 0,058
394,00 0,057
395,00 0,057
396,00 0,057
397,00 0,056
398,00 0,056
399,00 0,056
400,00 0,055
401,00 0,055
402,00 0,055
403,00 0,055
404,00 0,055
405,00 0,054
406,00 0,054
407,00 0,054
408,00 0,054
409,00 0,054
410,00 0,053
411,00 0,053
412,00 0,053
413,00 0,053
414,00 0,053
415,00 0,053
416,00 0,053
417,00 0,052
418,00 0,052
419,00 0,052
420,00 0,052
421,00 0,052
422,00 0,052
423,00 0,052
424,00 0,052
425,00 0,051
426,00 0,051
427,00 0,051
428,00 0,051
429,00 0,051
430,00 0,051
431,00 0,051
432,00 0,051
433,00 0,051
434,00 0,051
435,00 0,050
436,00 0,050
437,00 0,050
438,00 0,050
439,00 0,050
440,00 0,050
441,00 0,050
442,00 0,050
443,00 0,050
444,00 0,050
445,00 0,050
446,00 0,049
447,00 0,049
448,00 0,049
449,00 0,049
450,00 0,049
451,00 0,048
452,00 0,048
453,00 0,048
454,00 0,048
455,00 0,048
456,00 0,048
457,00 0,048
458,00 0,048
459,00 0,048
460,00 0,047
461,00 0,047
462,00 0,047
463,00 0,047
464,00 0,047
465,00 0,047
466,00 0,047
467,00 0,047
468,00 0,047
469,00 0,047
470,00 0,047
471,00 0,047
472,00 0,047
473,00 0,047
474,00 0,047
475,00 0,046
476,00 0,046
477,00 0,046
478,00 0,046
479,00 0,046
480,00 0,046
481,00 0,046
482,00 0,046
483,00 0,046
484,00 0,046
485,00 0,046
486,00 0,046
487,00 0,046
488,00 0,046
489,00 0,046
490,00 0,045
491,00 0,045
492,00 0,045
493,00 0,045
494,00 0,045
495,00 0,045
496,00 0,045
497,00 0,045
498,00 0,045
499,00 0,045
500,00 0,045
501,00 0,045
502,00 0,045
503,00 0,045
504,00 0,045
505,00 0,045
506,00 0,045
507,00 0,045
508,00 0,044
509,00 0,044
510,00 0,044
511,00 0,044
512,00 0,044
513,00 0,044
514,00 0,044
515,00 0,044
516,00 0,044
517,00 0,044
518,00 0,044
519,00 0,044
520,00 0,044
521,00 0,044
522,00 0,044
523,00 0,044
524,00 0,044
525,00 0,044
526,00 0,044
527,00 0,043
528,00 0,043
529,00 0,043
530,00 0,043
531,00 0,043
532,00 0,043
533,00 0,043
534,00 0,043
535,00 0,043
536,00 0,043
537,00 0,043
538,00 0,043
539,00 0,043
540,00 0,043
541,00 0,043
542,00 0,043
543,00 0,043
544,00 0,043
545,00 0,043
546,00 0,042
547,00 0,042
548,00 0,042
549,00 0,042
550,00 0,042
551,00 0,042
552,00 0,042
553,00 0,042
554,00 0,042
555,00 0,042
556,00 0,042
557,00 0,042
558,00 0,042
559,00 0,042
560,00 0,042
561,00 0,042
562,00 0,042
563,00 0,042
564,00 0,042
565,00 0,042
566,00 0,042
567,00 0,042
568,00 0,042
569,00 0,042
570,00 0,042
571,00 0,042
572,00 0,042
573,00 0,042
574,00 0,042
575,00 0,042
576,00 0,042
577,00 0,042
578,00 0,042
579,00 0,042
580,00 0,042
581,00 0,042
582,00 0,042
583,00 0,042
584,00 0,042
585,00 0,042
586,00 0,041
587,00 0,041
588,00 0,041
589,00 0,041
590,00 0,041
591,00 0,041
592,00 0,041
593,00 0,041
594,00 0,041
595,00 0,041
596,00 0,041
597,00 0,041
598,00 0,041
599,00 0,041
600,00 0,041
601,00 0,041
602,00 0,041
603,00 0,041
604,00 0,041
605,00 0,041
606,00 0,041
607,00 0,041
608,00 0,041
609,00 0,041
610,00 0,041
611,00 0,041
612,00 0,041
613,00 0,041
614,00 0,041
615,00 0,041
616,00 0,041
617,00 0,041
618,00 0,041
619,00 0,041
620,00 0,041
621,00 0,041
622,00 0,041
623,00 0,041
624,00 0,041
625,00 0,041
626,00 0,041
627,00 0,041
628,00 0,041
629,00 0,041
630,00 0,041
631,00 0,041
632,00 0,041
633,00 0,041
634,00 0,041
635,00 0,041
636,00 0,041
637,00 0,041
638,00 0,041
639,00 0,041
640,00 0,041
641,00 0,041
642,00 0,041
643,00 0,040
644,00 0,041
645,00 0,041
646,00 0,041
647,00 0,041
648,00 0,041
649,00 0,041
650,00 0,041
651,00 0,041
652,00 0,041
653,00 0,040
654,00 0,041
655,00 0,041
656,00 0,041
657,00 0,040
658,00 0,040
659,00 0,040
660,00 0,040
661,00 0,040
662,00 0,040
663,00 0,040
664,00 0,040
665,00 0,040
666,00 0,040
667,00 0,040
668,00 0,040
669,00 0,040
670,00 0,040
671,00 0,040
672,00 0,040
673,00 0,040
674,00 0,040
675,00 0,040
676,00 0,040
677,00 0,040
678,00 0,040
679,00 0,040
680,00 0,040
681,00 0,040
682,00 0,040
683,00 0,040
684,00 0,040
685,00 0,040
686,00 0,040
687,00 0,040
688,00 0,040
689,00 0,040
690,00 0,040
691,00 0,040
692,00 0,040
693,00 0,040
694,00 0,040
695,00 0,040
696,00 0,040
697,00 0,040
698,00 0,040
699,00 0,040
700,00 0,040
701,00 0,040
702,00 0,040
703,00 0,040
704,00 0,040
705,00 0,040
706,00 0,040
707,00 0,040
708,00 0,040
709,00 0,040
710,00 0,040
711,00 0,040
712,00 0,040
713,00 0,040
714,00 0,040
715,00 0,040
716,00 0,040
717,00 0,040
718,00 0,040
719,00 0,040
720,00 0,040
721,00 0,040
722,00 0,041
723,00 0,041
724,00 0,041
725,00 0,041
726,00 0,041
727,00 0,041
728,00 0,041
729,00 0,041
730,00 0,041
731,00 0,041
732,00 0,041
733,00 0,041
734,00 0,041
735,00 0,041
736,00 0,041
737,00 0,042
738,00 0,042
739,00 0,042
740,00 0,042
741,00 0,042
742,00 0,042
743,00 0,042
744,00 0,042
745,00 0,042
746,00 0,042
747,00 0,042
748,00 0,042
749,00 0,041
750,00 0,042
751,00 0,042
752,00 0,041
753,00 0,041
754,00 0,041
755,00 0,042
756,00 0,042
757,00 0,041
758,00 0,041
759,00 0,041
760,00 0,042
761,00 0,042
762,00 0,041
763,00 0,041
764,00 0,041
765,00 0,041
766,00 0,041
767,00 0,041
768,00 0,041
769,00 0,041
770,00 0,041
771,00 0,041
772,00 0,041
773,00 0,041
774,00 0,041
775,00 0,041
776,00 0,041
777,00 0,041
778,00 0,041
779,00 0,041
780,00 0,041
781,00 0,041
782,00 0,041
783,00 0,041
784,00 0,041
785,00 0,041
786,00 0,041
787,00 0,041
788,00 0,041
789,00 0,041
790,00 0,041
791,00 0,041
792,00 0,041
793,00 0,041
794,00 0,041
795,00 0,041
796,00 0,041
797,00 0,040
798,00 0,040
799,00 0,040
800,00 0,040
801,00 0,040
802,00 0,040
803,00 0,040
804,00 0,040
805,00 0,040
806,00 0,040
807,00 0,040
808,00 0,040
809,00 0,040
810,00 0,040
811,00 0,040
812,00 0,040
813,00 0,040
814,00 0,040
815,00 0,040
816,00 0,040
817,00 0,040
818,00 0,040
819,00 0,040
820,00 0,040
821,00 0,040
822,00 0,040
823,00 0,040
824,00 0,040
825,00 0,040
826,00 0,040
827,00 0,041
828,00 0,041
829,00 0,041
830,00 0,041
831,00 0,041
832,00 0,041
833,00 0,041
834,00 0,041
835,00 0,041
836,00 0,041
837,00 0,041
838,00 0,041
839,00 0,041
840,00 0,041
841,00 0,041
842,00 0,041
843,00 0,041
844,00 0,041
845,00 0,041
846,00 0,041
847,00 0,041
848,00 0,041
849,00 0,041
850,00 0,041
851,00 0,041
852,00 0,041
853,00 0,041
854,00 0,041
855,00 0,041
856,00 0,041
857,00 0,041
858,00 0,041
859,00 0,041
860,00 0,041
861,00 0,041
862,00 0,041
863,00 0,042
864,00 0,041
865,00 0,041
866,00 0,041
867,00 0,042
868,00 0,042
869,00 0,042
870,00 0,042
871,00 0,042
872,00 0,042
873,00 0,042
874,00 0,042
875,00 0,042
876,00 0,042
877,00 0,042
878,00 0,042
879,00 0,042
880,00 0,042
881,00 0,042
882,00 0,042
883,00 0,042
884,00 0,042
885,00 0,042
886,00 0,042
887,00 0,042
888,00 0,042
889,00 0,042
890,00 0,042
891,00 0,042
892,00 0,042
893,00 0,042
894,00 0,042
895,00 0,042
896,00 0,042
897,00 0,042
898,00 0,042
899,00 0,042
900,00 0,042
901,00 0,042
902,00 0,042
903,00 0,042
904,00 0,042
905,00 0,043
906,00 0,043
907,00 0,043
908,00 0,043
909,00 0,043
910,00 0,043
911,00 0,043
912,00 0,043
913,00 0,043
914,00 0,043
915,00 0,043
916,00 0,043
917,00 0,043
918,00 0,044
919,00 0,044
920,00 0,044
921,00 0,044
922,00 0,044
923,00 0,045
924,00 0,045
925,00 0,045
926,00 0,045
927,00 0,046
928,00 0,046
929,00 0,046
930,00 0,047
931,00 0,047
932,00 0,048
933,00 0,048
934,00 0,049
935,00 0,049
936,00 0,050
937,00 0,050
938,00 0,051
939,00 0,051
940,00 0,052
941,00 0,053
942,00 0,053
943,00 0,054
944,00 0,055
945,00 0,056
946,00 0,056
947,00 0,057
948,00 0,059
949,00 0,060
950,00 0,061
951,00 0,062
952,00 0,064
953,00 0,065
954,00 0,067
955,00 0,068
956,00 0,069
957,00 0,070
958,00 0,071
959,00 0,072
960,00 0,073
961,00 0,073
962,00 0,074
963,00 0,074
964,00 0,075
965,00 0,075
966,00 0,075
967,00 0,075
968,00 0,076
969,00 0,076
970,00 0,076
971,00 0,076
972,00 0,076
973,00 0,076
974,00 0,076
975,00 0,076
976,00 0,076
977,00 0,076
978,00 0,076
979,00 0,076
980,00 0,076
981,00 0,076
982,00 0,075
983,00 0,075
984,00 0,075
985,00 0,075
986,00 0,074
987,00 0,074
988,00 0,074
989,00 0,074
990,00 0,073
991,00 0,073
992,00 0,073
993,00 0,072
994,00 0,072
995,00 0,071
996,00 0,071
997,00 0,071
998,00 0,070
999,00 0,070
1000,00 0,069
1001,00 0,069
1002,00 0,069
1003,00 0,068
1004,00 0,067
1005,00 0,067
1006,00 0,067
1007,00 0,066
1008,00 0,066
1009,00 0,065
1010,00 0,065
1011,00 0,064
1012,00 0,064
1013,00 0,063
1014,00 0,063
1015,00 0,062
1016,00 0,062
1017,00 0,061
1018,00 0,061
1019,00 0,060
1020,00 0,060
1021,00 0,059
1022,00 0,059
1023,00 0,058
1024,00 0,058
1025,00 0,057
1026,00 0,057
1027,00 0,056
1028,00 0,056
1029,00 0,056
1030,00 0,055
1031,00 0,055
1032,00 0,054
1033,00 0,054
1034,00 0,054
1035,00 0,053
1036,00 0,053
1037,00 0,052
1038,00 0,052
1039,00 0,052
1040,00 0,051
1041,00 0,051
1042,00 0,051
1043,00 0,050
1044,00 0,050
1045,00 0,050
1046,00 0,050
1047,00 0,049
1048,00 0,049
1049,00 0,049
1050,00 0,049
1051,00 0,048
1052,00 0,048
1053,00 0,048
1054,00 0,048
1055,00 0,048
1056,00 0,048
1057,00 0,047
1058,00 0,047
1059,00 0,047
1060,00 0,047
1061,00 0,047
1062,00 0,047
1063,00 0,047
1064,00 0,047
1065,00 0,047
1066,00 0,047
1067,00 0,047
1068,00 0,046
1069,00 0,046
1070,00 0,046
1071,00 0,046
1072,00 0,046
1073,00 0,046
1074,00 0,046
1075,00 0,046
1076,00 0,046
1077,00 0,046
1078,00 0,047
1079,00 0,047
1080,00 0,047
1081,00 0,047
1082,00 0,047
1083,00 0,047
1084,00 0,048
1085,00 0,048
1086,00 0,047
1087,00 0,047
1088,00 0,048
1089,00 0,048
1090,00 0,048
1091,00 0,049
1092,00 0,049
1093,00 0,048
1094,00 0,049
1095,00 0,049
1096,00 0,050
1097,00 0,049
1098,00 0,050
1099,00 0,050
1100,00 0,050
